 Optimized Parameter
a1 = ,       0.149098
a2 = ,       0.093844
a3 = ,       0.070889
a4 = ,       0.004366
b1 = ,       0.010161
b2 = ,       0.093791
z1 = ,      78.813461
z2 = ,      18.682034
z3 = ,     142.828278
s1 = ,      23.102116
s2 = ,      28.987499
s3 = ,      44.460106
Er = ,  344034.343750
NS = ,       0.780438

 No,rain(mm/h),q_obs(m3/s),q_cal(m3/s)
    1,   0.05490,   5.65000,  23.30161
    2,   0.05440,   5.20000,  21.57640
    3,   0.05380,   4.26000,  20.03099
    4,   0.05330,   4.33000,  18.64657
    5,   0.05280,   5.42000,  17.40600
    6,   0.05230,   4.75000,  16.29397
    7,   0.05190,   3.90000,  15.29713
    8,   0.05140,   2.00000,  14.40285
    9,   0.05100,   1.28000,  13.60056
   10,   0.05060,   0.72000,  12.88044
   11,   0.05020,   7.48000,  12.23372
   12,   0.04990,   5.77000,  11.65294
   13,   0.04950,   4.17000,  11.13070
   14,   0.04920,   3.94000,  10.66112
   15,   0.04890,   3.48000,  10.54863
   16,   0.04860,   3.11000,  10.62917
   17,   0.04830,   3.30000,  10.70031
   18,   0.04800,   3.45000,  10.76294
   19,   0.04770,   3.73000,  10.81783
   20,   0.04750,   4.16000,  10.86570
   21,   0.04720,   3.57000,  10.90720
   22,   0.04700,   2.91000,  10.94290
   23,   0.04680,   3.02000,  10.97334
   24,   0.04660,   3.20000,  10.99900
   25,   0.04640,   3.17000,  11.02032
   26,   0.04620,   2.91000,  11.03770
   27,   0.04600,   3.00000,  11.05149
   28,   0.04590,   3.14000,  11.06201
   29,   0.04570,   3.05000,  11.06957
   30,   0.04550,   3.31000,  11.07443
   31,   0.04530,   3.80000,  11.07683
   32,   0.04520,   3.01000,  11.07699
   33,   0.04500,   2.85000,  11.07512
   34,   0.04490,   2.88000,  11.07140
   35,   0.04480,   2.99000,  11.06598
   36,   0.04460,   2.99000,  11.05902
   37,   0.04450,   3.01000,  11.05066
   38,   0.04440,   2.96000,  11.04101
   39,   0.04430,   1.16000,  11.03019
   40,   0.04420,   2.21000,  11.01830
   41,   0.04410,   3.87000,  11.00543
   42,   0.04400,   3.98000,  10.99166
   43,   0.04390,   3.50000,  10.97708
   44,   0.04380,   3.25000,  10.96175
   45,   0.04370,   3.04000,  10.94573
   46,   0.04360,   3.04000,  10.92908
   47,   0.04350,   2.84000,  10.91185
   48,   0.04340,   2.95000,  10.89409
   49,   0.04340,   3.00000,  10.87585
   50,   0.04340,   2.87000,  10.85715
   51,   0.04330,   2.77000,  10.83805
   52,   0.04320,   2.66000,  10.81856
   53,   0.04310,   3.03000,  10.79872
   54,   0.04310,   3.26000,  10.77856
   55,   0.04300,   3.08000,  10.75809
   56,   0.04300,   2.56000,  10.73736
   57,   0.04290,   2.58000,  10.71636
   58,   0.04290,   1.53000,  10.69513
   59,   0.04280,   1.53000,  10.67367
   60,   0.04280,   2.13000,  10.65202
   61,   0.04600,   2.43000,  10.63017
   62,   0.05510,   2.51000,  10.60815
   63,   0.06320,   2.58000,  10.58597
   64,   0.06210,   2.85000,  10.56364
   65,   0.06100,   3.17000,  10.54119
   66,   0.06000,   3.07000,  10.51860
   67,   0.05900,   3.97000,  10.49591
   68,   0.05810,   3.82000,  10.47311
   69,   0.05730,   3.05000,  10.45022
   70,   0.05650,   3.48000,  10.42724
   71,   0.05570,   4.20000,  10.40418
   72,   0.05500,   4.40000,  10.38105
   73,   0.05520,   3.84000,  10.35785
   74,   0.05450,   3.20000,  10.33458
   75,   0.05380,   3.08000,  10.31125
   76,   0.05310,   3.48000,  10.28787
   77,   0.05250,   3.82000,  10.26444
   78,   0.05190,   3.39000,  10.24096
   79,   0.05140,   2.36000,  10.21743
   80,   0.05090,   2.53000,  10.19387
   81,   0.05040,   3.14000,  10.17026
   82,   0.04990,   2.85000,  10.14662
   83,   0.04950,   2.59000,  10.12295
   84,   0.04910,   2.42000,  10.09925
   85,   0.05040,   2.48000,  10.07551
   86,   0.05500,   1.47000,  10.05175
   87,   0.05750,   1.64000,  10.02797
   88,   0.05670,   1.45000,  10.00417
   89,   0.08410,   1.74000,   9.98035
   90,   0.05530,   7.98000,   9.95653
   91,   0.05460,   5.59000,   9.93269
   92,   0.05400,   4.32000,   9.90884
   93,   0.05340,   4.75000,   9.88499
   94,   0.05280,   4.97000,   9.86113
   95,   0.05230,   4.67000,   9.83726
   96,   0.05180,   4.71000,   9.81339
   97,   0.05180,   5.31000,   9.78952
   98,   0.05130,   4.71000,   9.76565
   99,   0.05080,   4.62000,   9.74177
  100,   0.05030,   4.21000,   9.71790
  101,   0.04990,   3.90000,   9.69402
  102,   0.04950,   3.86000,   9.67015
  103,   0.04910,   3.59000,   9.64627
  104,   0.04870,   3.29000,   9.62241
  105,   0.04840,   3.36000,   9.59854
  106,   0.04800,   1.68000,   9.57467
  107,   0.17450,   0.69000,   9.55083
  108,   0.61780,   4.07000,   9.52710
  109,   0.04710,   3.15000,   9.50347
  110,   0.04680,   5.61000,   9.47993
  111,   0.04660,   7.28000,   9.45647
  112,   0.04630,   3.66000,   9.43308
  113,   0.43340,   3.75000,   9.40982
  114,   0.25010,   5.02000,   9.38670
  115,   0.12310,   5.31000,   9.36373
  116,   0.04550,   4.94000,   9.34087
  117,   0.04530,   4.98000,   9.31814
  118,   0.04510,   5.66000,   9.29550
  119,   0.04490,   5.94000,   9.27295
  120,   0.04480,   7.25000,   9.25049
  121,   0.04500,   6.45000,   9.22809
  122,   0.04500,   6.58000,   9.20576
  123,   0.04500,   5.74000,   9.18348
  124,   0.04480,   5.74000,   9.16126
  125,   0.04460,   8.53000,   9.13908
  126,   0.04440,   7.55000,   9.11694
  127,   0.04420,   6.98000,   9.09484
  128,   0.04410,   6.86000,   9.07277
  129,   0.04390,   6.61000,   9.05073
  130,   0.04380,   6.61000,   9.02871
  131,   0.04370,   6.92000,   9.00671
  132,   0.04420,   7.09000,   8.98474
  133,   0.04430,   5.83000,   8.96278
  134,   0.04420,   5.62000,   8.94084
  135,   0.04410,   5.84000,   8.91892
  136,   0.04390,   5.46000,   8.89701
  137,   0.04370,   6.30000,   8.87511
  138,   0.04350,   6.50000,   8.85322
  139,   0.04340,   6.65000,   8.83135
  140,   0.04330,   6.05000,   8.80949
  141,   0.04320,   5.62000,   8.78763
  142,   0.04300,   5.23000,   8.76579
  143,   0.04300,   4.98000,   8.74395
  144,   0.04290,   5.95000,   8.72213
  145,   0.04280,   5.82000,   8.70031
  146,   0.04270,   4.85000,   8.67850
  147,   0.04270,   4.51000,   8.65670
  148,   0.04260,   4.64000,   8.63491
  149,   0.04250,   4.89000,   8.61313
  150,   0.04250,   4.68000,   8.59136
  151,   0.04240,   4.51000,   8.56959
  152,   0.04240,   5.48000,   8.54784
  153,   0.04230,   5.00000,   8.52610
  154,   0.04230,   5.62000,   8.50437
  155,   0.04230,   6.57000,   8.48265
  156,   0.04580,   5.77000,   8.46094
  157,   0.05630,   6.28000,   8.43925
  158,   0.05870,   7.03000,   8.41757
  159,   0.05730,   4.58000,   8.39592
  160,   0.05610,   4.35000,   8.37428
  161,   0.05500,   5.34000,   8.35267
  162,   0.05400,   6.05000,   8.33109
  163,   0.05300,   6.30000,   8.30953
  164,   0.05220,   5.98000,   8.28799
  165,   0.05140,   6.14000,   8.26649
  166,   0.05070,   6.35000,   8.24501
  167,   0.05010,   6.72000,   8.22356
  168,   0.04950,   6.19000,   8.20214
  169,   0.04940,   6.03000,   8.18075
  170,   0.04880,   6.14000,   8.15938
  171,   0.04830,   5.80000,   8.13805
  172,   0.04780,   5.77000,   8.11675
  173,   0.04740,   5.63000,   8.09548
  174,   0.04700,   5.62000,   8.07424
  175,   0.04660,   5.16000,   8.05303
  176,   0.04630,   5.03000,   8.03184
  177,   0.04600,   5.21000,   8.01069
  178,   0.04570,   4.85000,   7.98957
  179,   0.04540,   5.07000,   7.96849
  180,   0.04520,   5.29000,   7.94743
  181,   0.04490,   4.85000,   7.92640
  182,   0.04470,   4.81000,   7.90540
  183,   0.04450,   4.72000,   7.88444
  184,   0.04430,   4.68000,   7.86350
  185,   0.04410,   4.56000,   7.84260
  186,   0.04400,   4.68000,   7.82173
  187,   0.04380,   4.64000,   7.80089
  188,   0.04370,   4.60000,   7.78008
  189,   0.04360,   4.60000,   7.75930
  190,   0.04350,   4.67000,   7.73855
  191,   0.04330,   4.33000,   7.71784
  192,   0.04320,   4.37000,   7.69715
  193,   0.04320,   4.37000,   7.67650
  194,   0.04310,   4.46000,   7.65589
  195,   0.04300,   4.46000,   7.63530
  196,   0.04290,   4.37000,   7.61475
  197,   0.04280,   4.37000,   7.59423
  198,   0.04270,   4.09000,   7.57374
  199,   0.04270,   4.28000,   7.55328
  200,   0.04260,   4.32000,   7.53286
  201,   0.04260,   4.20000,   7.51248
  202,   0.04250,   4.05000,   7.49212
  203,   0.04250,   4.13000,   7.47180
  204,   0.04410,   4.16000,   7.45152
  205,   0.06480,   4.20000,   7.43127
  206,   0.09790,   4.28000,   7.41108
  207,   0.11680,   4.68000,   7.39093
  208,   0.11120,   4.72000,   7.37086
  209,   0.10610,   5.58000,   7.35086
  210,   0.10140,   6.19000,   7.33093
  211,   0.09700,   6.33000,   7.31109
  212,   0.09300,   6.75000,   7.29133
  213,   0.08940,   6.75000,   7.27166
  214,   0.08600,   6.98000,   7.25208
  215,   0.08280,   7.01000,   7.23258
  216,   0.08000,   6.53000,   7.21318
  217,   0.07940,   6.52000,   7.19386
  218,   0.07660,   6.38000,   7.17463
  219,   0.07410,   6.11000,   7.15549
  220,   0.07170,   6.24000,   7.13644
  221,   0.06950,   5.87000,   7.11747
  222,   0.06750,   5.75000,   7.09859
  223,   0.06570,   5.80000,   7.07978
  224,   0.06400,   5.14000,   7.06105
  225,   0.06240,   5.38000,   7.04241
  226,   0.06100,   5.75000,   7.02383
  227,   0.05960,   5.23000,   7.00533
  228,   0.05900,   5.23000,   6.98690
  229,   0.06660,   5.86000,   6.96854
  230,   0.07970,   6.45000,   6.95026
  231,   0.09850,   6.12000,   6.93205
  232,   0.11200,   7.25000,   6.91392
  233,   0.11420,   8.13000,   6.89588
  234,   0.11240,   8.90000,   6.87793
  235,   0.10910,   9.87000,   6.86008
  236,   0.10620,   9.71000,   6.84233
  237,   0.71720,  10.71000,   6.82477
  238,   0.78050,  10.63000,   6.80750
  239,   1.51240,  11.65000,   6.79072
  240,   3.34850,  12.57000,   6.77490
  241,   4.17170,  14.91000,   6.76056
  242,   3.25690,  17.51000,  13.52834
  243,   3.86780,  22.63000,  25.66026
  244,   2.67650,  25.36000,  32.37032
  245,   0.13200,  36.60000,  29.49544
  246,   0.12350,  39.90000,  26.89088
  247,   0.11590,  42.57000,  24.53156
  248,   0.10910,  41.56000,  22.39469
  249,   0.10290,  39.25000,  20.45914
  250,   0.09740,  35.62000,  18.70636
  251,   0.09240,  31.37000,  17.11901
  252,   0.08780,  28.42000,  15.68123
  253,   0.08380,  28.10000,  14.37951
  254,   0.08040,  27.63000,  13.20174
  255,   0.08630,  24.78000,  12.16746
  256,   0.08910,  23.01000,  11.25089
  257,   0.08490,  21.32000,  10.41530
  258,   0.08100,  20.33000,   9.65327
  259,   0.07760,  18.76000,   8.95887
  260,   0.07440,  17.84000,   8.32574
  261,   0.07160,  16.94000,   7.74887
  262,   0.06900,  16.61000,   7.22309
  263,   0.06660,  15.51000,   6.74376
  264,   0.06450,  15.15000,   6.73765
  265,   0.06180,  14.21000,   6.73951
  266,   0.06020,  13.80000,   6.74126
  267,   0.05870,  11.50000,   6.74289
  268,   0.05730,  12.40000,   6.74440
  269,   0.05610,  12.20000,   6.74578
  270,   0.05490,  11.62000,   6.74701
  271,   0.05390,  12.35000,   6.74810
  272,   0.05290,  11.49000,   6.74904
  273,   0.05210,  11.31000,   6.74981
  274,   0.05130,  10.49000,   6.75043
  275,   0.05050,  11.49000,   6.75088
  276,   0.04990,  10.89000,   6.75116
  277,   0.04930,   8.17000,   6.75127
  278,   0.04870,  11.00000,   6.75120
  279,   0.04820,  10.28000,   6.75096
  280,   0.04770,  10.20000,   6.75054
  281,   0.04720,  10.15000,   6.74994
  282,   0.04680,  10.00000,   6.74916
  283,   0.04640,   9.62000,   6.74820
  284,   0.04610,   9.48000,   6.74706
  285,   0.04580,   9.41000,   6.74575
  286,   0.04550,   9.41000,   6.74424
  287,   0.04520,   9.33000,   6.74256
  288,   0.04490,   8.50000,   6.74070
  289,   0.04470,   8.50000,   6.73867
  290,   0.04450,   8.70000,   6.73645
  291,   0.04430,   6.97000,   6.73405
  292,   0.04410,   7.77000,   6.73148
  293,   0.04390,   7.62000,   6.72874
  294,   0.04380,   7.29000,   6.72582
  295,   0.04360,   8.83000,   6.72273
  296,   0.04350,   7.66000,   6.71946
  297,   0.04340,   7.29000,   6.71603
  298,   0.04330,   7.10000,   6.71243
  299,   0.04310,   7.29000,   6.70867
  300,   0.04300,   6.07000,   6.70474
  301,   0.04290,   5.64000,   6.70065
  302,   0.04370,   6.67000,   6.69640
  303,   0.69110,   6.61000,   6.69209
  304,   0.06130,   6.61000,   6.68772
  305,   0.06940,   6.72000,   6.68328
  306,   0.06780,   7.68000,   6.67877
  307,   0.06520,   6.61000,   6.67418
  308,   0.06290,   6.27000,   6.66951
  309,   0.06090,   5.65000,   6.66476
  310,   0.05900,   6.84000,   6.65992
  311,   0.05740,   6.33000,   6.65500
  312,   0.05590,   7.29000,   6.64998
  313,   0.05530,   6.10000,   6.64487
  314,   0.05400,   4.97000,   6.63967
  315,   0.05280,   6.28000,   6.63436
  316,   0.05180,   6.06000,   6.62896
  317,   0.05080,   5.84000,   6.62346
  318,   0.05000,   5.95000,   6.61785
  319,   0.04920,   5.63000,   6.61214
  320,   0.04850,   6.83000,   6.60633
  321,   0.04790,   5.11000,   6.60041
  322,   0.05760,   6.25000,   6.59439
  323,   0.10350,   5.05000,   6.58827
  324,   0.54240,   5.11000,   6.58213
  325,   2.29800,   5.99000,   6.57631
  326,   1.41820,   6.30000,   6.57097
  327,   1.26660,   6.67000,   6.56625
  328,   1.25160,   6.86000,   7.70881
  329,   1.16440,   7.27000,  10.99059
  330,   0.31600,   8.14000,  10.96789
  331,   0.29380,   9.45000,  10.87040
  332,   0.27350,   8.60000,  10.71253
  333,   0.25500,   7.74000,  10.50682
  334,   0.23810,   9.26000,  10.26385
  335,   0.22260,   8.89000,   9.99237
  336,   0.20850,   8.82000,   9.70022
  337,   0.20730,   8.62000,   9.43461
  338,   0.19360,   8.41000,   9.14909
  339,   0.18110,   8.27000,   8.84992
  340,   0.16970,   8.06000,   8.54236
  341,   0.15930,   7.74000,   8.23073
  342,   0.14980,   7.94000,   7.91862
  343,   0.14110,   7.54000,   7.60884
  344,   0.13310,   8.77000,   7.30358
  345,   0.12580,   7.68000,   7.00481
  346,   0.11910,   8.59000,   6.71393
  347,   0.14960,   6.72000,   6.56936
  348,   0.31380,   8.00000,   6.99512
  349,   0.26520,   7.55000,   7.21628
  350,   0.31590,   8.64000,   7.59180
  351,   0.31980,   7.68000,   7.94216
  352,   0.29580,   8.08000,   8.17253
  353,   0.27420,   8.13000,   8.30378
  354,   0.25420,   8.27000,   8.35181
  355,   0.23600,  10.59000,   8.33156
  356,   0.21950,   7.16000,   8.25606
  357,   0.20450,   9.53000,   8.13630
  358,   0.19080,   8.77000,   7.98141
  359,   0.17840,   8.55000,   7.79957
  360,   0.16700,  10.02000,   7.59708
  361,   0.15960,   7.29000,   7.39004
  362,   0.14970,   8.21000,   7.17019
  363,   0.14060,   8.20000,   6.94163
  364,   0.13240,   7.74000,   6.70841
  365,   0.12480,   7.94000,   6.61032
  366,   0.11790,   7.67000,   6.61255
  367,   0.11160,   7.35000,   6.61472
  368,   0.10590,   7.68000,   6.61682
  369,   0.10060,   7.93000,   6.61885
  370,   0.09580,   9.74000,   6.62079
  371,   0.10240,   7.03000,   6.62264
  372,   0.14240,   5.95000,   6.62441
  373,   0.19630,   6.05000,   6.62609
  374,   0.22520,   7.73000,   6.62771
  375,   0.23280,   7.43000,   6.62928
  376,   0.21550,   7.19000,   6.63081
  377,   0.20000,   7.25000,   6.63230
  378,   0.18590,   8.75000,   6.63375
  379,   0.17310,   6.82000,   6.63517
  380,   0.16160,   7.32000,   6.63656
  381,   0.15110,   6.64000,   6.63791
  382,   0.14160,   7.70000,   6.63923
  383,   0.13300,   7.70000,   6.64049
  384,   0.12510,   7.45000,   6.64171
  385,   0.11610,   7.45000,   6.64287
  386,   0.10990,   7.45000,   6.64397
  387,   0.10430,   7.39000,   6.64500
  388,   0.09910,   7.39000,   6.64596
  389,   0.09440,   6.89000,   6.64683
  390,   0.09010,   6.89000,   6.64761
  391,   0.08620,   7.01000,   6.64831
  392,   0.08260,   6.71000,   6.64890
  393,   0.07930,   6.64000,   6.64939
  394,   0.07630,   6.53000,   6.64976
  395,   0.07350,   6.52000,   6.65003
  396,   0.07120,   6.65000,   6.65017
  397,   0.08190,   6.23000,   6.65019
  398,   0.10930,   6.33000,   6.65009
  399,   0.12170,   6.27000,   6.64987
  400,   0.11600,   6.16000,   6.64954
  401,   0.10960,   6.27000,   6.64910
  402,   0.10340,   8.38000,   6.64855
  403,   0.09780,   5.88000,   6.64789
  404,   0.09270,   6.94000,   6.64712
  405,   0.08810,   5.88000,   6.64623
  406,   0.08400,   4.88000,   6.64524
  407,   0.08030,   6.22000,   6.64413
  408,   0.07690,   6.11000,   6.64290
  409,   0.07370,   5.88000,   6.64155
  410,   0.07100,   5.88000,   6.64008
  411,   0.06850,   5.82000,   6.63849
  412,   0.06620,   5.87000,   6.63677
  413,   0.06410,   5.77000,   6.63493
  414,   0.06220,   5.39000,   6.63296
  415,   0.06050,   5.64000,   6.63085
  416,   0.05890,   5.61000,   6.62862
  417,   0.05750,   5.44000,   6.62625
  418,   0.07900,   5.70000,   6.62375
  419,   0.15460,   5.80000,   6.62113
  420,   0.18230,   5.75000,   6.61842
  421,   0.33910,   5.80000,   6.61564
  422,   0.35440,   6.08000,   6.61284
  423,   0.34520,   6.49000,   6.61005
  424,   0.32130,   6.75000,   6.60729
  425,   0.29790,   7.20000,   6.60458
  426,   0.27600,   7.52000,   6.60195
  427,   0.25610,   9.82000,   6.59939
  428,   0.23810,   8.25000,   6.59690
  429,   0.22160,   6.14000,   6.59450
  430,   0.20650,   7.23000,   6.59218
  431,   0.19280,   9.04000,   6.58994
  432,   0.18030,   8.39000,   6.58778
  433,   0.15730,   8.46000,   6.58567
  434,   0.14860,   8.18000,   6.58363
  435,   0.14070,   7.71000,   6.58163
  436,   0.13330,   7.52000,   6.57967
  437,   0.12650,   7.32000,   6.57775
  438,   0.12020,   6.95000,   6.57584
  439,   0.11450,   7.26000,   6.57394
  440,   0.10920,   7.07000,   6.57205
  441,   0.10420,   6.83000,   6.57015
  442,   0.10280,   6.76000,   6.56824
  443,   0.23850,   6.47000,   6.56632
  444,   0.58490,   6.65000,   6.56448
  445,   0.82790,   6.77000,   6.56279
  446,   0.74910,   7.20000,   6.56134
  447,   0.62400,   7.29000,   6.56017
  448,   0.46870,   7.87000,   6.55930
  449,   0.43780,   8.41000,   6.91594
  450,   0.40760,   8.89000,   7.63922
  451,   0.37990,  10.81000,   8.19079
  452,   0.35440,  10.73000,   8.59622
  453,   0.33100,   9.02000,   8.87805
  454,   0.30940,  10.21000,   9.05545
  455,   0.28950,   9.40000,   9.14521
  456,   0.27120,  11.28000,   9.16205
  457,   0.28570,   7.91000,   9.22811
  458,   0.26520,   9.40000,   9.21602
  459,   0.24650,   8.66000,   9.14020
  460,   0.22950,   8.75000,   9.01321
  461,   0.21390,   8.31000,   8.84525
  462,   0.19960,   8.53000,   8.64512
  463,   0.18650,   7.99000,   8.42034
  464,   0.17460,   7.65000,   8.17766
  465,   0.16370,   7.67000,   7.92241
  466,   0.15370,   7.81000,   7.65903
  467,   0.14940,   7.55000,   7.40829
  468,   0.16250,   7.55000,   7.22962
  469,   0.25170,   7.22000,   7.38136
  470,   0.32770,   7.55000,   7.78306
  471,   0.30330,   7.16000,   8.05802
  472,   0.28030,   7.22000,   8.22432
  473,   0.25940,   6.92000,   8.30060
  474,   0.24040,   6.98000,   8.30286
  475,   0.22320,   8.47000,   8.24508
  476,   0.20750,   6.30000,   8.13875
  477,   0.19330,   6.43000,   7.99413
  478,   0.18030,   6.67000,   7.81940
  479,   0.16850,   7.23000,   7.62187
  480,   0.15770,   6.74000,   7.40740
  481,   0.15100,   6.74000,   7.19206
  482,   0.14150,   6.21000,   6.96614
  483,   0.13280,   6.50000,   6.73352
  484,   0.12500,   6.67000,   6.62710
  485,   0.11780,   6.21000,   6.62934
  486,   0.11130,   6.21000,   6.63150
  487,   0.10540,   6.38000,   6.63359
  488,   0.10000,   6.80000,   6.63560
  489,   0.09500,   6.01000,   6.63752
  490,   0.28060,   6.68000,   6.63937
  491,   0.27650,   6.21000,   6.64118
  492,   0.46300,   6.38000,   6.69354
  493,   0.27080,   7.03000,   6.97293
  494,   0.27070,   7.42000,   7.22312
  495,   0.27290,   6.98000,   7.45519
  496,   0.27680,   8.07000,   7.67698
  497,   0.28200,   8.70000,   7.89409
  498,   0.28850,   8.56000,   8.11158
  499,   0.28560,  11.88000,   8.29657
  500,   0.47330,  10.85000,   9.11827
  501,   0.85140,  11.01000,  11.17561
  502,   1.03960,  10.07000,  13.67687
  503,   1.22800,  13.21000,  16.57670
